# Viscosity of He3-n, Zinov'eva-1958
# T[K], eta*1e5 [poise]

0.35 4.80
0.40 4.00
0.45 3.64
0.50 3.40
0.55 3.22
0.60 3.07
0.70 2.82
 0.8 2.63
 0.9 2.46
 1.0 2.33
 1.2 2.14
 1.4 2.02
 1.6 1.96
 1.8 1.92
 2.0 1.87
 2.2 1.83
 2.4 1.78
 2.6 1.74
 2.8 1.70
 3.0 1.66
 3.2 1.61